time,h,v,der(h),der(v),v_new,foo,flying,impact
0,1.00045752432,0,0,-9.810000000000001,0,2,1,0
0.002,1.000437904319193,-0.01962000000000001,-0.01962000000000001,-9.810000000000001,0,2,1,0
0.004,1.000379044319106,-0.03924,-0.03924,-9.810000000000001,0,2,1,0
0.006,1.000280944319056,-0.05885999999999999,-0.05885999999999999,-9.810000000000001,0,2,1,0
0.008,1.000143604319016,-0.07847999999999999,-0.07847999999999999,-9.810000000000001,0,2,1,0
0.01,0.9999670243189891,-0.09809999999999999,-0.09809999999999999,-9.810000000000001,0,2,1,0
0.012,0.9997512043189601,-0.11772,-0.11772,-9.810000000000001,0,2,1,0
0.014,0.9994961443189365,-0.13734,-0.13734,-9.810000000000001,0,2,1,0
0.016,0.9992018443189182,-0.15696,-0.15696,-9.810000000000001,0,2,1,0
0.018,0.9988683043189053,-0.17658,-0.17658,-9.810000000000001,0,2,1,0
0.02,0.9984955243188919,-0.1962,-0.1962,-9.810000000000001,0,2,1,0
0.022,0.9980835043188759,-0.21582,-0.21582,-9.810000000000001,0,2,1,0
0.024,0.9976322443188613,-0.23544,-0.23544,-9.810000000000001,0,2,1,0
0.026,0.9971417443188481,-0.25506,-0.25506,-9.810000000000001,0,2,1,0
0.028,0.9966120043188361,-0.27468,-0.27468,-9.810000000000001,0,2,1,0
0.03,0.9960430243188255,-0.2943,-0.2943,-9.810000000000001,0,2,1,0
0.032,0.9954348043188162,-0.31392,-0.31392,-9.810000000000001,0,2,1,0
0.034,0.9947873443188082,-0.3335400000000001,-0.3335400000000001,-9.810000000000001,0,2,1,0
0.036,0.9941006443188016,-0.35316,-0.35316,-9.810000000000001,0,2,1,0
0.038,0.9933747043187958,-0.37278,-0.37278,-9.810000000000001,0,2,1,0
0.04,0.9926095243187868,-0.3924,-0.3924,-9.810000000000001,0,2,1,0
0.042,0.991805104318778,-0.4120200000000001,-0.4120200000000001,-9.810000000000001,0,2,1,0
0.044,0.9909614443187698,-0.43164,-0.43164,-9.810000000000001,0,2,1,0
0.046,0.9900785443187617,-0.4512600000000001,-0.4512600000000001,-9.810000000000001,0,2,1,0
0.048,0.9891564043187542,-0.47088,-0.47088,-9.810000000000001,0,2,1,0
0.05,0.988195024318747,-0.4905000000000001,-0.4905000000000001,-9.810000000000001,0,2,1,0
0.052,0.9871944043187402,-0.51012,-0.51012,-9.810000000000001,0,2,1,0
0.054,0.9861545443187336,-0.52974,-0.52974,-9.810000000000001,0,2,1,0
0.056,0.9850754443187275,-0.5493600000000001,-0.5493600000000001,-9.810000000000001,0,2,1,0
0.058,0.9839571043187219,-0.56898,-0.56898,-9.810000000000001,0,2,1,0
0.06,0.9827995243187165,-0.5886,-0.5886,-9.810000000000001,0,2,1,0
0.062,0.9816027043187114,-0.6082200000000001,-0.6082200000000001,-9.810000000000001,0,2,1,0
0.064,0.9803666443187069,-0.6278400000000001,-0.6278400000000001,-9.810000000000001,0,2,1,0
0.066,0.9790913443187027,-0.64746,-0.64746,-9.810000000000001,0,2,1,0
0.06800000000000001,0.9777768043186987,-0.6670800000000001,-0.6670800000000001,-9.810000000000001,0,2,1,0
0.07000000000000001,0.9764230243186953,-0.6867000000000001,-0.6867000000000001,-9.810000000000001,0,2,1,0
0.072,0.9750300043186922,-0.7063200000000001,-0.7063200000000001,-9.810000000000001,0,2,1,0
0.074,0.9735977443186894,-0.72594,-0.72594,-9.810000000000001,0,2,1,0
0.076,0.9721262443186866,-0.7455599999999998,-0.7455599999999998,-9.810000000000001,0,2,1,0
0.078,0.9706155043186817,-0.7651799999999999,-0.7651799999999999,-9.810000000000001,0,2,1,0
0.08,0.9690655243186771,-0.7847999999999998,-0.7847999999999998,-9.810000000000001,0,2,1,0
0.082,0.9674763043186724,-0.8044199999999998,-0.8044199999999998,-9.810000000000001,0,2,1,0
0.08400000000000001,0.9658478443186679,-0.8240399999999999,-0.8240399999999999,-9.810000000000001,0,2,1,0
0.08599999999999999,0.9641801443186634,-0.8436599999999997,-0.8436599999999997,-9.810000000000001,0,2,1,0
0.088,0.9624732043186591,-0.8632799999999998,-0.8632799999999998,-9.810000000000001,0,2,1,0
0.09,0.9607270243186548,-0.8828999999999998,-0.8828999999999998,-9.810000000000001,0,2,1,0
0.092,0.9589416043186506,-0.9025199999999998,-0.9025199999999998,-9.810000000000001,0,2,1,0
0.094,0.9571169443186466,-0.9221399999999999,-0.9221399999999999,-9.810000000000001,0,2,1,0
0.096,0.9552530443186427,-0.9417599999999998,-0.9417599999999998,-9.810000000000001,0,2,1,0
0.098,0.9533499043186388,-0.9613799999999999,-0.9613799999999999,-9.810000000000001,0,2,1,0
0.1,0.951407524318635,-0.9809999999999999,-0.9809999999999999,-9.810000000000001,0,2,1,0
0.102,0.9494259043186312,-1.00062,-1.00062,-9.810000000000001,0,2,1,0
0.104,0.9474050443186277,-1.02024,-1.02024,-9.810000000000001,0,2,1,0
0.106,0.9453449443186242,-1.03986,-1.03986,-9.810000000000001,0,2,1,0
0.108,0.9432456043186207,-1.05948,-1.05948,-9.810000000000001,0,2,1,0
0.11,0.9411070243186174,-1.0791,-1.0791,-9.810000000000001,0,2,1,0
0.112,0.9389292043186143,-1.09872,-1.09872,-9.810000000000001,0,2,1,0
0.114,0.9367121443186112,-1.11834,-1.11834,-9.810000000000001,0,2,1,0
0.116,0.9344558443186081,-1.13796,-1.13796,-9.810000000000001,0,2,1,0
0.118,0.9321603043186052,-1.15758,-1.15758,-9.810000000000001,0,2,1,0
0.12,0.9298255243186023,-1.1772,-1.1772,-9.810000000000001,0,2,1,0
0.122,0.9274515043185996,-1.19682,-1.19682,-9.810000000000001,0,2,1,0
0.124,0.9250382443185969,-1.21644,-1.21644,-9.810000000000001,0,2,1,0
0.126,0.9225857443185944,-1.23606,-1.23606,-9.810000000000001,0,2,1,0
0.128,0.920094004318592,-1.25568,-1.25568,-9.810000000000001,0,2,1,0
0.13,0.9175630243185896,-1.2753,-1.2753,-9.810000000000001,0,2,1,0
0.132,0.9149928043185873,-1.29492,-1.29492,-9.810000000000001,0,2,1,0
0.134,0.9123833443185851,-1.31454,-1.31454,-9.810000000000001,0,2,1,0
0.136,0.9097346443185831,-1.33416,-1.33416,-9.810000000000001,0,2,1,0
0.138,0.907046704318581,-1.35378,-1.35378,-9.810000000000001,0,2,1,0
0.14,0.9043195243185792,-1.3734,-1.3734,-9.810000000000001,0,2,1,0
0.142,0.9015531043185775,-1.39302,-1.39302,-9.810000000000001,0,2,1,0
0.144,0.8987474443185757,-1.41264,-1.41264,-9.810000000000001,0,2,1,0
0.146,0.8959025443185741,-1.43226,-1.43226,-9.810000000000001,0,2,1,0
0.148,0.8930184043185727,-1.45188,-1.45188,-9.810000000000001,0,2,1,0
0.15,0.8900950243185712,-1.4715,-1.4715,-9.810000000000001,0,2,1,0
0.152,0.8871324043185692,-1.49112,-1.49112,-9.810000000000001,0,2,1,0
0.154,0.8841305443185668,-1.51074,-1.51074,-9.810000000000001,0,2,1,0
0.156,0.8810894443185642,-1.53036,-1.53036,-9.810000000000001,0,2,1,0
0.158,0.8780091043185616,-1.54998,-1.54998,-9.810000000000001,0,2,1,0
0.16,0.8748895243185592,-1.5696,-1.5696,-9.810000000000001,0,2,1,0
0.162,0.8717307043185566,-1.58922,-1.58922,-9.810000000000001,0,2,1,0
0.164,0.8685326443185542,-1.60884,-1.60884,-9.810000000000001,0,2,1,0
0.166,0.8652953443185517,-1.62846,-1.62846,-9.810000000000001,0,2,1,0
0.168,0.8620188043185493,-1.64808,-1.64808,-9.810000000000001,0,2,1,0
0.17,0.8587030243185468,-1.6677,-1.6677,-9.810000000000001,0,2,1,0
0.172,0.8553480043185446,-1.68732,-1.68732,-9.810000000000001,0,2,1,0
0.174,0.8519537443185422,-1.70694,-1.70694,-9.810000000000001,0,2,1,0
0.176,0.84852024431854,-1.72656,-1.72656,-9.810000000000001,0,2,1,0
0.178,0.8450475043185377,-1.74618,-1.74618,-9.810000000000001,0,2,1,0
0.18,0.8415355243185354,-1.7658,-1.7658,-9.810000000000001,0,2,1,0
0.182,0.8379843043185332,-1.78542,-1.78542,-9.810000000000001,0,2,1,0
0.184,0.834393844318531,-1.80504,-1.80504,-9.810000000000001,0,2,1,0
0.186,0.8307641443185287,-1.82466,-1.82466,-9.810000000000001,0,2,1,0
0.188,0.8270952043185267,-1.84428,-1.84428,-9.810000000000001,0,2,1,0
0.19,0.8233870243185245,-1.8639,-1.8639,-9.810000000000001,0,2,1,0
0.192,0.8196396043185225,-1.88352,-1.88352,-9.810000000000001,0,2,1,0
0.194,0.8158529443185204,-1.90314,-1.90314,-9.810000000000001,0,2,1,0
0.196,0.8120270443185184,-1.92276,-1.92276,-9.810000000000001,0,2,1,0
0.198,0.8081619043185163,-1.94238,-1.94238,-9.810000000000001,0,2,1,0
0.2,0.8042575243185144,-1.962,-1.962,-9.810000000000001,0,2,1,0
0.202,0.8003139043185124,-1.98162,-1.98162,-9.810000000000001,0,2,1,0
0.204,0.7963310443185105,-2.00124,-2.00124,-9.810000000000001,0,2,1,0
0.206,0.7923089443185085,-2.02086,-2.02086,-9.810000000000001,0,2,1,0
0.208,0.7882476043185067,-2.04048,-2.04048,-9.810000000000001,0,2,1,0
0.21,0.7841470243185048,-2.0601,-2.0601,-9.810000000000001,0,2,1,0
0.212,0.780007204318503,-2.07972,-2.07972,-9.810000000000001,0,2,1,0
0.214,0.7758281443185012,-2.09934,-2.09934,-9.810000000000001,0,2,1,0
0.216,0.7716098443184994,-2.11896,-2.11896,-9.810000000000001,0,2,1,0
0.218,0.7673523043184977,-2.13858,-2.13858,-9.810000000000001,0,2,1,0
0.22,0.763055524318496,-2.1582,-2.1582,-9.810000000000001,0,2,1,0
0.222,0.7587195043184942,-2.17782,-2.17782,-9.810000000000001,0,2,1,0
0.224,0.7543442443184925,-2.19744,-2.19744,-9.810000000000001,0,2,1,0
0.226,0.7499297443184909,-2.21706,-2.21706,-9.810000000000001,0,2,1,0
0.228,0.7454760043184893,-2.23668,-2.23668,-9.810000000000001,0,2,1,0
0.23,0.7409830243184876,-2.2563,-2.2563,-9.810000000000001,0,2,1,0
0.232,0.7364508043184861,-2.27592,-2.27592,-9.810000000000001,0,2,1,0
0.234,0.7318793443184845,-2.29554,-2.29554,-9.810000000000001,0,2,1,0
0.236,0.727268644318483,-2.31516,-2.31516,-9.810000000000001,0,2,1,0
0.238,0.7226187043184815,-2.33478,-2.33478,-9.810000000000001,0,2,1,0
0.24,0.7179295243184801,-2.3544,-2.3544,-9.810000000000001,0,2,1,0
0.242,0.7132011043184786,-2.37402,-2.37402,-9.810000000000001,0,2,1,0
0.244,0.7084334443184772,-2.39364,-2.39364,-9.810000000000001,0,2,1,0
0.246,0.7036265443184758,-2.41326,-2.41326,-9.810000000000001,0,2,1,0
0.248,0.6987804043184744,-2.43288,-2.43288,-9.810000000000001,0,2,1,0
0.25,0.6938950243184731,-2.4525,-2.4525,-9.810000000000001,0,2,1,0
0.252,0.6889704043184718,-2.47212,-2.47212,-9.810000000000001,0,2,1,0
0.254,0.6840065443184705,-2.49174,-2.49174,-9.810000000000001,0,2,1,0
0.256,0.6790034443184692,-2.51136,-2.51136,-9.810000000000001,0,2,1,0
0.258,0.673961104318468,-2.53098,-2.53098,-9.810000000000001,0,2,1,0
0.26,0.6688795243184668,-2.5506,-2.5506,-9.810000000000001,0,2,1,0
0.262,0.6637587043184655,-2.57022,-2.57022,-9.810000000000001,0,2,1,0
0.264,0.6585986443184645,-2.58984,-2.58984,-9.810000000000001,0,2,1,0
0.266,0.6533993443184633,-2.60946,-2.60946,-9.810000000000001,0,2,1,0
0.268,0.6481608043184621,-2.62908,-2.62908,-9.810000000000001,0,2,1,0
0.27,0.6428830243184611,-2.6487,-2.6487,-9.810000000000001,0,2,1,0
0.272,0.63756600431846,-2.668320000000001,-2.668320000000001,-9.810000000000001,0,2,1,0
0.274,0.6322097443184589,-2.68794,-2.68794,-9.810000000000001,0,2,1,0
0.276,0.626814244318458,-2.70756,-2.70756,-9.810000000000001,0,2,1,0
0.278,0.621379504318457,-2.72718,-2.72718,-9.810000000000001,0,2,1,0
0.28,0.615905524318456,-2.7468,-2.7468,-9.810000000000001,0,2,1,0
0.282,0.6103923043184553,-2.76642,-2.76642,-9.810000000000001,0,2,1,0
0.284,0.6048398443184544,-2.78604,-2.78604,-9.810000000000001,0,2,1,0
0.286,0.5992481443184534,-2.80566,-2.80566,-9.810000000000001,0,2,1,0
0.288,0.5936172043184527,-2.82528,-2.82528,-9.810000000000001,0,2,1,0
0.29,0.5879470243184518,-2.8449,-2.8449,-9.810000000000001,0,2,1,0
0.292,0.582237604318451,-2.86452,-2.86452,-9.810000000000001,0,2,1,0
0.294,0.5764889443184502,-2.88414,-2.88414,-9.810000000000001,0,2,1,0
0.296,0.5707010443184495,-2.90376,-2.90376,-9.810000000000001,0,2,1,0
0.298,0.5648739043184488,-2.92338,-2.92338,-9.810000000000001,0,2,1,0
0.3,0.559007524318448,-2.943,-2.943,-9.810000000000001,0,2,1,0
0.302,0.5531019043184474,-2.96262,-2.96262,-9.810000000000001,0,2,1,0
0.304,0.5471570443184464,-2.98224,-2.98224,-9.810000000000001,0,2,1,0
0.306,0.5411729443184449,-3.00186,-3.00186,-9.810000000000001,0,2,1,0
0.308,0.5351496043184435,-3.02148,-3.02148,-9.810000000000001,0,2,1,0
0.31,0.5290870243184421,-3.0411,-3.0411,-9.810000000000001,0,2,1,0
0.312,0.5229852043184409,-3.06072,-3.06072,-9.810000000000001,0,2,1,0
0.314,0.5168441443184395,-3.08034,-3.08034,-9.810000000000001,0,2,1,0
0.316,0.5106638443184381,-3.09996,-3.09996,-9.810000000000001,0,2,1,0
0.318,0.5044443043184368,-3.11958,-3.11958,-9.810000000000001,0,2,1,0
0.32,0.4981855243184355,-3.1392,-3.1392,-9.810000000000001,0,2,1,0
0.322,0.4918875043184341,-3.15882,-3.15882,-9.810000000000001,0,2,1,0
0.324,0.4855502443184329,-3.17844,-3.17844,-9.810000000000001,0,2,1,0
0.326,0.4791737443184315,-3.19806,-3.19806,-9.810000000000001,0,2,1,0
0.328,0.4727580043184302,-3.21768,-3.21768,-9.810000000000001,0,2,1,0
0.33,0.4663030243184289,-3.2373,-3.2373,-9.810000000000001,0,2,1,0
0.332,0.4598088043184277,-3.25692,-3.25692,-9.810000000000001,0,2,1,0
0.334,0.4532753443184264,-3.27654,-3.27654,-9.810000000000001,0,2,1,0
0.336,0.4467026443184251,-3.29616,-3.29616,-9.810000000000001,0,2,1,0
0.338,0.4400907043184238,-3.31578,-3.31578,-9.810000000000001,0,2,1,0
0.34,0.4334395243184226,-3.3354,-3.3354,-9.810000000000001,0,2,1,0
0.342,0.4267491043184213,-3.35502,-3.35502,-9.810000000000001,0,2,1,0
0.344,0.4200194443184203,-3.37464,-3.37464,-9.810000000000001,0,2,1,0
0.346,0.4132505443184191,-3.39426,-3.39426,-9.810000000000001,0,2,1,0
0.348,0.4064424043184178,-3.41388,-3.41388,-9.810000000000001,0,2,1,0
0.35,0.3995950243184166,-3.4335,-3.4335,-9.810000000000001,0,2,1,0
0.352,0.3927084043184154,-3.45312,-3.45312,-9.810000000000001,0,2,1,0
0.354,0.3857825443184141,-3.47274,-3.47274,-9.810000000000001,0,2,1,0
0.356,0.378817444318413,-3.49236,-3.49236,-9.810000000000001,0,2,1,0
0.358,0.3718131043184118,-3.51198,-3.51198,-9.810000000000001,0,2,1,0
0.36,0.3647695243184105,-3.5316,-3.5316,-9.810000000000001,0,2,1,0
0.362,0.3576867043184094,-3.55122,-3.55122,-9.810000000000001,0,2,1,0
0.364,0.3505646443184082,-3.57084,-3.57084,-9.810000000000001,0,2,1,0
0.366,0.343403344318407,-3.59046,-3.59046,-9.810000000000001,0,2,1,0
0.368,0.3362028043184059,-3.61008,-3.61008,-9.810000000000001,0,2,1,0
0.37,0.3289630243184047,-3.6297,-3.6297,-9.810000000000001,0,2,1,0
0.372,0.3216840043184036,-3.64932,-3.64932,-9.810000000000001,0,2,1,0
0.374,0.3143657443184024,-3.66894,-3.66894,-9.810000000000001,0,2,1,0
0.376,0.3070082443184013,-3.68856,-3.68856,-9.810000000000001,0,2,1,0
0.378,0.2996115043184001,-3.70818,-3.70818,-9.810000000000001,0,2,1,0
0.38,0.292175524318399,-3.7278,-3.7278,-9.810000000000001,0,2,1,0
0.382,0.2847003043183979,-3.74742,-3.74742,-9.810000000000001,0,2,1,0
0.384,0.2771858443183968,-3.76704,-3.76704,-9.810000000000001,0,2,1,0
0.386,0.2696321443183957,-3.78666,-3.78666,-9.810000000000001,0,2,1,0
0.388,0.2620392043183946,-3.80628,-3.80628,-9.810000000000001,0,2,1,0
0.39,0.2544070243183935,-3.8259,-3.8259,-9.810000000000001,0,2,1,0
0.392,0.2467356043183924,-3.84552,-3.84552,-9.810000000000001,0,2,1,0
0.394,0.2390249443183913,-3.86514,-3.86514,-9.810000000000001,0,2,1,0
0.396,0.2312750443183902,-3.88476,-3.88476,-9.810000000000001,0,2,1,0
0.398,0.2234859043183892,-3.90438,-3.90438,-9.810000000000001,0,2,1,0
0.4,0.2156575243183881,-3.924,-3.924,-9.810000000000001,0,2,1,0
0.402,0.207789904318387,-3.94362,-3.94362,-9.810000000000001,0,2,1,0
0.404,0.199883044318386,-3.96324,-3.96324,-9.810000000000001,0,2,1,0
0.406,0.191936944318385,-3.982860000000001,-3.982860000000001,-9.810000000000001,0,2,1,0
0.408,0.1839516043183842,-4.00248,-4.00248,-9.810000000000001,0,2,1,0
0.41,0.1759270243183831,-4.0221,-4.0221,-9.810000000000001,0,2,1,0
0.412,0.1678632043183821,-4.04172,-4.04172,-9.810000000000001,0,2,1,0
0.414,0.1597601443183811,-4.06134,-4.06134,-9.810000000000001,0,2,1,0
0.416,0.1516178443183801,-4.08096,-4.08096,-9.810000000000001,0,2,1,0
0.418,0.1434363043183791,-4.10058,-4.10058,-9.810000000000001,0,2,1,0
0.42,0.1352155243183781,-4.1202,-4.1202,-9.810000000000001,0,2,1,0
0.422,0.1269555043183771,-4.13982,-4.13982,-9.810000000000001,0,2,1,0
0.424,0.1186562443183761,-4.15944,-4.15944,-9.810000000000001,0,2,1,0
0.426,0.1103177443183752,-4.17906,-4.17906,-9.810000000000001,0,2,1,0
0.428,0.1019400043183742,-4.19868,-4.19868,-9.810000000000001,0,2,1,0
0.43,0.09352302431837324,-4.2183,-4.2183,-9.810000000000001,0,2,1,0
0.432,0.08506680431837228,-4.23792,-4.23792,-9.810000000000001,0,2,1,0
0.434,0.07657134431837134,-4.25754,-4.25754,-9.810000000000001,0,2,1,0
0.436,0.06803664431837039,-4.27716,-4.27716,-9.810000000000001,0,2,1,0
0.438,0.05946270431836946,-4.29678,-4.29678,-9.810000000000001,0,2,1,0
0.44,0.05084952431836854,-4.3164,-4.3164,-9.810000000000001,0,2,1,0
0.442,0.04219710431836762,-4.33602,-4.33602,-9.810000000000001,0,2,1,0
0.444,0.0335054443183667,-4.35564,-4.35564,-9.810000000000001,0,2,1,0
0.446,0.0247745443183658,-4.37526,-4.37526,-9.810000000000001,0,2,1,0
0.448,0.0160044043183649,-4.394880000000001,-4.394880000000001,-9.810000000000001,0,2,1,0
0.45,0.007195024318364009,-4.4145,-4.4145,-9.810000000000001,0,2,1,0
0.451626920719443,-1.000069096409933e-010,-4.430460092257736,-4.430460092257736,-9.810000000000001,0,2,1,0
0.451626920719443,-1.000069096409933e-010,3.101322064580415,3.101322064580415,-9.810000000000001,3.101322064580415,1,1,1
0.4516269207839343,1.000013233399384e-010,3.101322063947755,3.101322063947755,-9.810000000000001,3.101322064580415,1,1,1
0.4516269207839343,1.000013233399384e-010,3.101322063947755,3.101322063947755,-9.810000000000001,3.101322064580415,2,1,0
0.452,0.001156356183460278,3.097662156838151,3.097662156838151,-9.810000000000001,3.101322064580415,2,1,0
0.454,0.007332060495896504,3.07804215683815,3.07804215683815,-9.810000000000001,3.101322064580415,2,1,0
0.456,0.01346852480914002,3.058422156838151,3.058422156838151,-9.810000000000001,3.101322064580415,2,1,0
0.458,0.01956574912254671,3.038802156838151,3.038802156838151,-9.810000000000001,3.101322064580415,2,1,0
0.46,0.02562373343598292,3.019182156838151,3.019182156838151,-9.810000000000001,3.101322064580415,2,1,0
0.462,0.03164247774949727,2.999562156838151,2.999562156838151,-9.810000000000001,3.101322064580415,2,1,0
0.464,0.0376219820630638,2.97994215683815,2.97994215683815,-9.810000000000001,3.101322064580415,2,1,0
0.466,0.04356224637660045,2.96032215683815,2.96032215683815,-9.810000000000001,3.101322064580415,2,1,0
0.468,0.04946327069015568,2.94070215683815,2.94070215683815,-9.810000000000001,3.101322064580415,2,1,0
0.47,0.05532505500372933,2.921082156838151,2.921082156838151,-9.810000000000001,3.101322064580415,2,1,0
0.472,0.06114759931732174,2.901462156838151,2.901462156838151,-9.810000000000001,3.101322064580415,2,1,0
0.474,0.06693090363093272,2.881842156838151,2.881842156838151,-9.810000000000001,3.101322064580415,2,1,0
0.476,0.07267496794454761,2.862222156838151,2.862222156838151,-9.810000000000001,3.101322064580415,2,1,0
0.478,0.07837979225814538,2.842602156838151,2.842602156838151,-9.810000000000001,3.101322064580415,2,1,0
0.48,0.08404537657174854,2.822982156838151,2.822982156838151,-9.810000000000001,3.101322064580415,2,1,0
0.482,0.08967172088535708,2.803362156838151,2.803362156838151,-9.810000000000001,3.101322064580415,2,1,0
0.484,0.09525882519897098,2.783742156838151,2.783742156838151,-9.810000000000001,3.101322064580415,2,1,0
0.486,0.1008066895125903,2.76412215683815,2.76412215683815,-9.810000000000001,3.101322064580415,2,1,0
0.488,0.1063153138262149,2.744502156838151,2.744502156838151,-9.810000000000001,3.101322064580415,2,1,0
0.49,0.1117846981398449,2.724882156838151,2.724882156838151,-9.810000000000001,3.101322064580415,2,1,0
0.492,0.1172148424534803,2.705262156838151,2.705262156838151,-9.810000000000001,3.101322064580415,2,1,0
0.494,0.1226057467671211,2.685642156838151,2.685642156838151,-9.810000000000001,3.101322064580415,2,1,0
0.496,0.1279574110807673,2.66602215683815,2.66602215683815,-9.810000000000001,3.101322064580415,2,1,0
0.498,0.1332698353944188,2.646402156838151,2.646402156838151,-9.810000000000001,3.101322064580415,2,1,0
0.5,0.1385430197080625,2.626782156838151,2.626782156838151,-9.810000000000001,3.101322064580415,2,1,0
0.502,0.1437769640216967,2.607162156838151,2.607162156838151,-9.810000000000001,3.101322064580415,2,1,0
0.504,0.1489716683353322,2.587542156838151,2.587542156838151,-9.810000000000001,3.101322064580415,2,1,0
0.506,0.1541271326489691,2.567922156838151,2.567922156838151,-9.810000000000001,3.101322064580415,2,1,0
0.508,0.1592433569626073,2.548302156838151,2.548302156838151,-9.810000000000001,3.101322064580415,2,1,0
0.51,0.1643203412762468,2.528682156838151,2.528682156838151,-9.810000000000001,3.101322064580415,2,1,0
