"time","h","v","der(h)","der(v)","v_new","foo","flying","impact",
0,2.66808799414,0,0,-9.810000000000001,0,2,1,0,
0.002,2.668068374139192,-0.01962000000000001,-0.01962000000000001,-9.810000000000001,0,2,1,0,
0.004,2.668009514139105,-0.03924,-0.03924,-9.810000000000001,0,2,1,0,
0.006,2.667911414139055,-0.05885999999999999,-0.05885999999999999,-9.810000000000001,0,2,1,0,
0.008,2.667774074139015,-0.07847999999999999,-0.07847999999999999,-9.810000000000001,0,2,1,0,
0.01,2.667597494138988,-0.09809999999999999,-0.09809999999999999,-9.810000000000001,0,2,1,0,
0.012,2.66738167413896,-0.11772,-0.11772,-9.810000000000001,0,2,1,0,
0.014,2.667126614138935,-0.13734,-0.13734,-9.810000000000001,0,2,1,0,
0.016,2.666832314138917,-0.15696,-0.15696,-9.810000000000001,0,2,1,0,
0.018,2.666498774138905,-0.17658,-0.17658,-9.810000000000001,0,2,1,0,
0.02,2.666125994138891,-0.1962,-0.1962,-9.810000000000001,0,2,1,0,
0.022,2.665713974138875,-0.21582,-0.21582,-9.810000000000001,0,2,1,0,
0.024,2.66526271413886,-0.23544,-0.23544,-9.810000000000001,0,2,1,0,
0.026,2.664772214138847,-0.25506,-0.25506,-9.810000000000001,0,2,1,0,
0.028,2.664242474138835,-0.27468,-0.27468,-9.810000000000001,0,2,1,0,
0.03,2.663673494138824,-0.2943,-0.2943,-9.810000000000001,0,2,1,0,
0.032,2.663065274138815,-0.31392,-0.31392,-9.810000000000001,0,2,1,0,
0.034,2.662417814138807,-0.3335400000000001,-0.3335400000000001,-9.810000000000001,0,2,1,0,
0.036,2.6617311141388,-0.35316,-0.35316,-9.810000000000001,0,2,1,0,
0.038,2.661005174138795,-0.37278,-0.37278,-9.810000000000001,0,2,1,0,
0.04,2.660239994138786,-0.3924,-0.3924,-9.810000000000001,0,2,1,0,
0.042,2.659435574138778,-0.4120200000000001,-0.4120200000000001,-9.810000000000001,0,2,1,0,
0.044,2.658591914138769,-0.43164,-0.43164,-9.810000000000001,0,2,1,0,
0.046,2.657709014138761,-0.4512600000000001,-0.4512600000000001,-9.810000000000001,0,2,1,0,
0.048,2.656786874138753,-0.47088,-0.47088,-9.810000000000001,0,2,1,0,
0.05,2.655825494138746,-0.4905000000000001,-0.4905000000000001,-9.810000000000001,0,2,1,0,
0.052,2.654824874138739,-0.51012,-0.51012,-9.810000000000001,0,2,1,0,
0.054,2.653785014138733,-0.52974,-0.52974,-9.810000000000001,0,2,1,0,
0.056,2.652705914138727,-0.5493600000000001,-0.5493600000000001,-9.810000000000001,0,2,1,0,
0.058,2.651587574138721,-0.56898,-0.56898,-9.810000000000001,0,2,1,0,
0.06,2.650429994138716,-0.5886,-0.5886,-9.810000000000001,0,2,1,0,
0.062,2.649233174138711,-0.6082200000000001,-0.6082200000000001,-9.810000000000001,0,2,1,0,
0.064,2.647997114138706,-0.6278400000000001,-0.6278400000000001,-9.810000000000001,0,2,1,0,
0.066,2.646721814138702,-0.64746,-0.64746,-9.810000000000001,0,2,1,0,
0.06800000000000001,2.645407274138698,-0.6670800000000001,-0.6670800000000001,-9.810000000000001,0,2,1,0,
0.07000000000000001,2.644053494138694,-0.6867000000000001,-0.6867000000000001,-9.810000000000001,0,2,1,0,
0.072,2.642660474138691,-0.7063200000000001,-0.7063200000000001,-9.810000000000001,0,2,1,0,
0.074,2.641228214138689,-0.72594,-0.72594,-9.810000000000001,0,2,1,0,
0.076,2.639756714138686,-0.7455599999999998,-0.7455599999999998,-9.810000000000001,0,2,1,0,
0.078,2.638245974138681,-0.7651799999999999,-0.7651799999999999,-9.810000000000001,0,2,1,0,
0.08,2.636695994138676,-0.7847999999999998,-0.7847999999999998,-9.810000000000001,0,2,1,0,
0.082,2.635106774138671,-0.8044199999999998,-0.8044199999999998,-9.810000000000001,0,2,1,0,
0.08400000000000001,2.633478314138667,-0.8240399999999999,-0.8240399999999999,-9.810000000000001,0,2,1,0,
0.08599999999999999,2.631810614138662,-0.8436599999999997,-0.8436599999999997,-9.810000000000001,0,2,1,0,
0.088,2.630103674138658,-0.8632799999999998,-0.8632799999999998,-9.810000000000001,0,2,1,0,
0.09,2.628357494138654,-0.8828999999999998,-0.8828999999999998,-9.810000000000001,0,2,1,0,
0.092,2.62657207413865,-0.9025199999999998,-0.9025199999999998,-9.810000000000001,0,2,1,0,
0.094,2.624747414138646,-0.9221399999999999,-0.9221399999999999,-9.810000000000001,0,2,1,0,
0.096,2.622883514138642,-0.9417599999999998,-0.9417599999999998,-9.810000000000001,0,2,1,0,
0.098,2.620980374138638,-0.9613799999999999,-0.9613799999999999,-9.810000000000001,0,2,1,0,
0.1,2.619037994138634,-0.9809999999999999,-0.9809999999999999,-9.810000000000001,0,2,1,0,
0.102,2.617056374138631,-1.00062,-1.00062,-9.810000000000001,0,2,1,0,
0.104,2.615035514138627,-1.02024,-1.02024,-9.810000000000001,0,2,1,0,
0.106,2.612975414138623,-1.03986,-1.03986,-9.810000000000001,0,2,1,0,
0.108,2.61087607413862,-1.05948,-1.05948,-9.810000000000001,0,2,1,0,
0.11,2.608737494138617,-1.0791,-1.0791,-9.810000000000001,0,2,1,0,
0.112,2.606559674138613,-1.09872,-1.09872,-9.810000000000001,0,2,1,0,
0.114,2.60434261413861,-1.11834,-1.11834,-9.810000000000001,0,2,1,0,
0.116,2.602086314138607,-1.13796,-1.13796,-9.810000000000001,0,2,1,0,
0.118,2.599790774138604,-1.15758,-1.15758,-9.810000000000001,0,2,1,0,
0.12,2.597455994138601,-1.1772,-1.1772,-9.810000000000001,0,2,1,0,
0.122,2.595081974138599,-1.19682,-1.19682,-9.810000000000001,0,2,1,0,
0.124,2.592668714138597,-1.21644,-1.21644,-9.810000000000001,0,2,1,0,
0.126,2.590216214138594,-1.23606,-1.23606,-9.810000000000001,0,2,1,0,
0.128,2.587724474138591,-1.25568,-1.25568,-9.810000000000001,0,2,1,0,
0.13,2.585193494138589,-1.2753,-1.2753,-9.810000000000001,0,2,1,0,
0.132,2.582623274138586,-1.29492,-1.29492,-9.810000000000001,0,2,1,0,
0.134,2.580013814138584,-1.31454,-1.31454,-9.810000000000001,0,2,1,0,
0.136,2.577365114138582,-1.33416,-1.33416,-9.810000000000001,0,2,1,0,
0.138,2.57467717413858,-1.35378,-1.35378,-9.810000000000001,0,2,1,0,
0.14,2.571949994138578,-1.3734,-1.3734,-9.810000000000001,0,2,1,0,
0.142,2.569183574138577,-1.39302,-1.39302,-9.810000000000001,0,2,1,0,
0.144,2.566377914138575,-1.41264,-1.41264,-9.810000000000001,0,2,1,0,
0.146,2.563533014138573,-1.43226,-1.43226,-9.810000000000001,0,2,1,0,
0.148,2.560648874138572,-1.45188,-1.45188,-9.810000000000001,0,2,1,0,
0.15,2.55772549413857,-1.4715,-1.4715,-9.810000000000001,0,2,1,0,
0.152,2.554762874138568,-1.49112,-1.49112,-9.810000000000001,0,2,1,0,
0.154,2.551761014138566,-1.51074,-1.51074,-9.810000000000001,0,2,1,0,
0.156,2.548719914138563,-1.53036,-1.53036,-9.810000000000001,0,2,1,0,
0.158,2.545639574138561,-1.54998,-1.54998,-9.810000000000001,0,2,1,0,
0.16,2.542519994138558,-1.5696,-1.5696,-9.810000000000001,0,2,1,0,
0.162,2.539361174138556,-1.58922,-1.58922,-9.810000000000001,0,2,1,0,
0.164,2.536163114138553,-1.60884,-1.60884,-9.810000000000001,0,2,1,0,
0.166,2.532925814138551,-1.62846,-1.62846,-9.810000000000001,0,2,1,0,
0.168,2.529649274138548,-1.64808,-1.64808,-9.810000000000001,0,2,1,0,
0.17,2.526333494138546,-1.6677,-1.6677,-9.810000000000001,0,2,1,0,
0.172,2.522978474138544,-1.68732,-1.68732,-9.810000000000001,0,2,1,0,
0.174,2.519584214138541,-1.70694,-1.70694,-9.810000000000001,0,2,1,0,
0.176,2.516150714138539,-1.72656,-1.72656,-9.810000000000001,0,2,1,0,
0.178,2.512677974138537,-1.74618,-1.74618,-9.810000000000001,0,2,1,0,
0.18,2.509165994138535,-1.7658,-1.7658,-9.810000000000001,0,2,1,0,
0.182,2.505614774138532,-1.78542,-1.78542,-9.810000000000001,0,2,1,0,
0.184,2.50202431413853,-1.80504,-1.80504,-9.810000000000001,0,2,1,0,
0.186,2.498394614138528,-1.82466,-1.82466,-9.810000000000001,0,2,1,0,
0.188,2.494725674138526,-1.84428,-1.84428,-9.810000000000001,0,2,1,0,
0.19,2.491017494138524,-1.8639,-1.8639,-9.810000000000001,0,2,1,0,
0.192,2.487270074138522,-1.88352,-1.88352,-9.810000000000001,0,2,1,0,
0.194,2.48348341413852,-1.90314,-1.90314,-9.810000000000001,0,2,1,0,
0.196,2.479657514138518,-1.92276,-1.92276,-9.810000000000001,0,2,1,0,
0.198,2.475792374138516,-1.94238,-1.94238,-9.810000000000001,0,2,1,0,
0.2,2.471887994138514,-1.962,-1.962,-9.810000000000001,0,2,1,0,
0.202,2.467944374138512,-1.98162,-1.98162,-9.810000000000001,0,2,1,0,
0.204,2.463961514138509,-2.00124,-2.00124,-9.810000000000001,0,2,1,0,
0.206,2.459939414138508,-2.02086,-2.02086,-9.810000000000001,0,2,1,0,
0.208,2.455878074138506,-2.04048,-2.04048,-9.810000000000001,0,2,1,0,
0.21,2.451777494138504,-2.0601,-2.0601,-9.810000000000001,0,2,1,0,
0.212,2.447637674138502,-2.07972,-2.07972,-9.810000000000001,0,2,1,0,
0.214,2.4434586141385,-2.09934,-2.09934,-9.810000000000001,0,2,1,0,
0.216,2.439240314138499,-2.11896,-2.11896,-9.810000000000001,0,2,1,0,
0.218,2.434982774138497,-2.13858,-2.13858,-9.810000000000001,0,2,1,0,
0.22,2.430685994138495,-2.1582,-2.1582,-9.810000000000001,0,2,1,0,
0.222,2.426349974138493,-2.17782,-2.17782,-9.810000000000001,0,2,1,0,
0.224,2.421974714138492,-2.19744,-2.19744,-9.810000000000001,0,2,1,0,
0.226,2.41756021413849,-2.21706,-2.21706,-9.810000000000001,0,2,1,0,
0.228,2.413106474138488,-2.23668,-2.23668,-9.810000000000001,0,2,1,0,
0.23,2.408613494138487,-2.2563,-2.2563,-9.810000000000001,0,2,1,0,
0.232,2.404081274138485,-2.27592,-2.27592,-9.810000000000001,0,2,1,0,
0.234,2.399509814138484,-2.29554,-2.29554,-9.810000000000001,0,2,1,0,
0.236,2.394899114138482,-2.31516,-2.31516,-9.810000000000001,0,2,1,0,
0.238,2.39024917413848,-2.33478,-2.33478,-9.810000000000001,0,2,1,0,
0.24,2.385559994138479,-2.3544,-2.3544,-9.810000000000001,0,2,1,0,
0.242,2.380831574138478,-2.37402,-2.37402,-9.810000000000001,0,2,1,0,
0.244,2.376063914138476,-2.39364,-2.39364,-9.810000000000001,0,2,1,0,
0.246,2.371257014138475,-2.41326,-2.41326,-9.810000000000001,0,2,1,0,
0.248,2.366410874138474,-2.43288,-2.43288,-9.810000000000001,0,2,1,0,
0.25,2.361525494138472,-2.4525,-2.4525,-9.810000000000001,0,2,1,0,
0.252,2.356600874138471,-2.47212,-2.47212,-9.810000000000001,0,2,1,0,
0.254,2.35163701413847,-2.49174,-2.49174,-9.810000000000001,0,2,1,0,
0.256,2.346633914138469,-2.51136,-2.51136,-9.810000000000001,0,2,1,0,
0.258,2.341591574138467,-2.53098,-2.53098,-9.810000000000001,0,2,1,0,
0.26,2.336509994138466,-2.5506,-2.5506,-9.810000000000001,0,2,1,0,
0.262,2.331389174138465,-2.57022,-2.57022,-9.810000000000001,0,2,1,0,
0.264,2.326229114138464,-2.58984,-2.58984,-9.810000000000001,0,2,1,0,
0.266,2.321029814138462,-2.60946,-2.60946,-9.810000000000001,0,2,1,0,
0.268,2.315791274138461,-2.62908,-2.62908,-9.810000000000001,0,2,1,0,
0.27,2.31051349413846,-2.6487,-2.6487,-9.810000000000001,0,2,1,0,
0.272,2.305196474138459,-2.668320000000001,-2.668320000000001,-9.810000000000001,0,2,1,0,
0.274,2.299840214138458,-2.68794,-2.68794,-9.810000000000001,0,2,1,0,
0.276,2.294444714138457,-2.70756,-2.70756,-9.810000000000001,0,2,1,0,
0.278,2.289009974138456,-2.72718,-2.72718,-9.810000000000001,0,2,1,0,
0.28,2.283535994138455,-2.7468,-2.7468,-9.810000000000001,0,2,1,0,
0.282,2.278022774138454,-2.76642,-2.76642,-9.810000000000001,0,2,1,0,
0.284,2.272470314138454,-2.78604,-2.78604,-9.810000000000001,0,2,1,0,
0.286,2.266878614138453,-2.80566,-2.80566,-9.810000000000001,0,2,1,0,
0.288,2.261247674138452,-2.82528,-2.82528,-9.810000000000001,0,2,1,0,
0.29,2.255577494138451,-2.8449,-2.8449,-9.810000000000001,0,2,1,0,
0.292,2.24986807413845,-2.86452,-2.86452,-9.810000000000001,0,2,1,0,
0.294,2.244119414138449,-2.88414,-2.88414,-9.810000000000001,0,2,1,0,
0.296,2.238331514138448,-2.90376,-2.90376,-9.810000000000001,0,2,1,0,
0.298,2.232504374138448,-2.92338,-2.92338,-9.810000000000001,0,2,1,0,
0.3,2.226637994138447,-2.943,-2.943,-9.810000000000001,0,2,1,0,
0.302,2.220732374138446,-2.96262,-2.96262,-9.810000000000001,0,2,1,0,
0.304,2.214787514138445,-2.98224,-2.98224,-9.810000000000001,0,2,1,0,
0.306,2.208803414138444,-3.00186,-3.00186,-9.810000000000001,0,2,1,0,
0.308,2.202780074138443,-3.02148,-3.02148,-9.810000000000001,0,2,1,0,
0.31,2.196717494138441,-3.0411,-3.0411,-9.810000000000001,0,2,1,0,
0.312,2.19061567413844,-3.06072,-3.06072,-9.810000000000001,0,2,1,0,
0.314,2.184474614138439,-3.08034,-3.08034,-9.810000000000001,0,2,1,0,
0.316,2.178294314138437,-3.09996,-3.09996,-9.810000000000001,0,2,1,0,
0.318,2.172074774138436,-3.11958,-3.11958,-9.810000000000001,0,2,1,0,
0.32,2.165815994138435,-3.1392,-3.1392,-9.810000000000001,0,2,1,0,
0.322,2.159517974138433,-3.15882,-3.15882,-9.810000000000001,0,2,1,0,
0.324,2.153180714138432,-3.17844,-3.17844,-9.810000000000001,0,2,1,0,
0.326,2.146804214138431,-3.19806,-3.19806,-9.810000000000001,0,2,1,0,
0.328,2.14038847413843,-3.21768,-3.21768,-9.810000000000001,0,2,1,0,
0.33,2.133933494138428,-3.2373,-3.2373,-9.810000000000001,0,2,1,0,
0.332,2.127439274138427,-3.25692,-3.25692,-9.810000000000001,0,2,1,0,
0.334,2.120905814138426,-3.27654,-3.27654,-9.810000000000001,0,2,1,0,
0.336,2.114333114138424,-3.29616,-3.29616,-9.810000000000001,0,2,1,0,
0.338,2.107721174138423,-3.31578,-3.31578,-9.810000000000001,0,2,1,0,
0.34,2.101069994138422,-3.3354,-3.3354,-9.810000000000001,0,2,1,0,
0.342,2.09437957413842,-3.35502,-3.35502,-9.810000000000001,0,2,1,0,
0.344,2.08764991413842,-3.37464,-3.37464,-9.810000000000001,0,2,1,0,
0.346,2.080881014138418,-3.39426,-3.39426,-9.810000000000001,0,2,1,0,
0.348,2.074072874138417,-3.41388,-3.41388,-9.810000000000001,0,2,1,0,
0.35,2.067225494138416,-3.4335,-3.4335,-9.810000000000001,0,2,1,0,
0.352,2.060338874138414,-3.45312,-3.45312,-9.810000000000001,0,2,1,0,
0.354,2.053413014138414,-3.47274,-3.47274,-9.810000000000001,0,2,1,0,
0.356,2.046447914138412,-3.49236,-3.49236,-9.810000000000001,0,2,1,0,
0.358,2.039443574138411,-3.51198,-3.51198,-9.810000000000001,0,2,1,0,
0.36,2.03239999413841,-3.5316,-3.5316,-9.810000000000001,0,2,1,0,
0.362,2.025317174138408,-3.55122,-3.55122,-9.810000000000001,0,2,1,0,
0.364,2.018195114138408,-3.57084,-3.57084,-9.810000000000001,0,2,1,0,
0.366,2.011033814138406,-3.59046,-3.59046,-9.810000000000001,0,2,1,0,
0.368,2.003833274138405,-3.61008,-3.61008,-9.810000000000001,0,2,1,0,
0.37,1.996593494138404,-3.6297,-3.6297,-9.810000000000001,0,2,1,0,
0.372,1.989314474138403,-3.64932,-3.64932,-9.810000000000001,0,2,1,0,
0.374,1.981996214138402,-3.66894,-3.66894,-9.810000000000001,0,2,1,0,
0.376,1.974638714138401,-3.68856,-3.68856,-9.810000000000001,0,2,1,0,
0.378,1.9672419741384,-3.70818,-3.70818,-9.810000000000001,0,2,1,0,
0.38,1.959805994138398,-3.7278,-3.7278,-9.810000000000001,0,2,1,0,
0.382,1.952330774138397,-3.74742,-3.74742,-9.810000000000001,0,2,1,0,
0.384,1.944816314138396,-3.76704,-3.76704,-9.810000000000001,0,2,1,0,
0.386,1.937262614138395,-3.78666,-3.78666,-9.810000000000001,0,2,1,0,
0.388,1.929669674138394,-3.80628,-3.80628,-9.810000000000001,0,2,1,0,
0.39,1.922037494138393,-3.8259,-3.8259,-9.810000000000001,0,2,1,0,
0.392,1.914366074138391,-3.84552,-3.84552,-9.810000000000001,0,2,1,0,
0.394,1.906655414138391,-3.86514,-3.86514,-9.810000000000001,0,2,1,0,
0.396,1.89890551413839,-3.88476,-3.88476,-9.810000000000001,0,2,1,0,
0.398,1.891116374138389,-3.90438,-3.90438,-9.810000000000001,0,2,1,0,
0.4,1.883287994138387,-3.924,-3.924,-9.810000000000001,0,2,1,0,
0.402,1.875420374138386,-3.94362,-3.94362,-9.810000000000001,0,2,1,0,
0.404,1.867513514138385,-3.96324,-3.96324,-9.810000000000001,0,2,1,0,
0.406,1.859567414138384,-3.982860000000001,-3.982860000000001,-9.810000000000001,0,2,1,0,
0.408,1.851582074138384,-4.00248,-4.00248,-9.810000000000001,0,2,1,0,
0.41,1.843557494138382,-4.0221,-4.0221,-9.810000000000001,0,2,1,0,
0.412,1.835493674138381,-4.04172,-4.04172,-9.810000000000001,0,2,1,0,
0.414,1.82739061413838,-4.06134,-4.06134,-9.810000000000001,0,2,1,0,
0.416,1.819248314138379,-4.08096,-4.08096,-9.810000000000001,0,2,1,0,
0.418,1.811066774138378,-4.10058,-4.10058,-9.810000000000001,0,2,1,0,
0.42,1.802845994138377,-4.1202,-4.1202,-9.810000000000001,0,2,1,0,
0.422,1.794585974138376,-4.13982,-4.13982,-9.810000000000001,0,2,1,0,
0.424,1.786286714138375,-4.15944,-4.15944,-9.810000000000001,0,2,1,0,
0.426,1.777948214138374,-4.17906,-4.17906,-9.810000000000001,0,2,1,0,
0.428,1.769570474138373,-4.19868,-4.19868,-9.810000000000001,0,2,1,0,
0.43,1.761153494138372,-4.2183,-4.2183,-9.810000000000001,0,2,1,0,
0.432,1.752697274138372,-4.23792,-4.23792,-9.810000000000001,0,2,1,0,
0.434,1.744201814138371,-4.25754,-4.25754,-9.810000000000001,0,2,1,0,
0.436,1.73566711413837,-4.27716,-4.27716,-9.810000000000001,0,2,1,0,
0.438,1.727093174138369,-4.29678,-4.29678,-9.810000000000001,0,2,1,0,
0.44,1.718479994138368,-4.3164,-4.3164,-9.810000000000001,0,2,1,0,
0.442,1.709827574138367,-4.33602,-4.33602,-9.810000000000001,0,2,1,0,
0.444,1.701135914138366,-4.35564,-4.35564,-9.810000000000001,0,2,1,0,
0.446,1.692405014138365,-4.37526,-4.37526,-9.810000000000001,0,2,1,0,
0.448,1.683634874138364,-4.394880000000001,-4.394880000000001,-9.810000000000001,0,2,1,0,
0.45,1.674825494138363,-4.4145,-4.4145,-9.810000000000001,0,2,1,0,
0.452,1.665976874138362,-4.43412,-4.43412,-9.810000000000001,0,2,1,0,
0.454,1.657089014138361,-4.453740000000001,-4.453740000000001,-9.810000000000001,0,2,1,0,
0.456,1.648161914138361,-4.47336,-4.47336,-9.810000000000001,0,2,1,0,
0.458,1.63919557413836,-4.49298,-4.49298,-9.810000000000001,0,2,1,0,
0.46,1.630189994138359,-4.5126,-4.5126,-9.810000000000001,0,2,1,0,
0.462,1.621145174138358,-4.532220000000001,-4.532220000000001,-9.810000000000001,0,2,1,0,
0.464,1.612061114138357,-4.55184,-4.55184,-9.810000000000001,0,2,1,0,
0.466,1.602937814138356,-4.57146,-4.57146,-9.810000000000001,0,2,1,0,
0.468,1.593775274138356,-4.591080000000001,-4.591080000000001,-9.810000000000001,0,2,1,0,
0.47,1.584573494138355,-4.6107,-4.6107,-9.810000000000001,0,2,1,0,
0.472,1.575332474138354,-4.63032,-4.63032,-9.810000000000001,0,2,1,0,
0.474,1.566052214138353,-4.64994,-4.64994,-9.810000000000001,0,2,1,0,
0.476,1.556732714138353,-4.66956,-4.66956,-9.810000000000001,0,2,1,0,
0.478,1.547373974138352,-4.68918,-4.68918,-9.810000000000001,0,2,1,0,
0.48,1.537975994138351,-4.7088,-4.7088,-9.810000000000001,0,2,1,0,
0.482,1.52853877413835,-4.72842,-4.72842,-9.810000000000001,0,2,1,0,
0.484,1.519062314138349,-4.748040000000001,-4.748040000000001,-9.810000000000001,0,2,1,0,
0.486,1.509546614138349,-4.76766,-4.76766,-9.810000000000001,0,2,1,0,
0.488,1.499991674138348,-4.78728,-4.78728,-9.810000000000001,0,2,1,0,
0.49,1.490397494138347,-4.8069,-4.8069,-9.810000000000001,0,2,1,0,
0.492,1.480764074138346,-4.82652,-4.82652,-9.810000000000001,0,2,1,0,
0.494,1.471091414138345,-4.84614,-4.84614,-9.810000000000001,0,2,1,0,
0.496,1.461379514138345,-4.86576,-4.86576,-9.810000000000001,0,2,1,0,
0.498,1.451628374138344,-4.885380000000001,-4.885380000000001,-9.810000000000001,0,2,1,0,
0.5,1.441837994138344,-4.905,-4.905,-9.810000000000001,0,2,1,0,
0.502,1.432008374138343,-4.92462,-4.92462,-9.810000000000001,0,2,1,0,
0.504,1.422139514138342,-4.944240000000001,-4.944240000000001,-9.810000000000001,0,2,1,0,
0.506,1.412231414138341,-4.96386,-4.96386,-9.810000000000001,0,2,1,0,
0.508,1.40228407413834,-4.98348,-4.98348,-9.810000000000001,0,2,1,0,
0.51,1.39229749413834,-5.0031,-5.0031,-9.810000000000001,0,2,1,0,
0.512,1.382271674138339,-5.022720000000001,-5.022720000000001,-9.810000000000001,0,2,1,0,
0.514,1.372206614138338,-5.04234,-5.04234,-9.810000000000001,0,2,1,0,
0.516,1.362102314138338,-5.06196,-5.06196,-9.810000000000001,0,2,1,0,
0.518,1.351958774138337,-5.081580000000001,-5.081580000000001,-9.810000000000001,0,2,1,0,
0.52,1.341775994138337,-5.1012,-5.1012,-9.810000000000001,0,2,1,0,
0.522,1.331553974138336,-5.12082,-5.12082,-9.810000000000001,0,2,1,0,
0.524,1.321292714138335,-5.140440000000001,-5.140440000000001,-9.810000000000001,0,2,1,0,
0.526,1.310992214138335,-5.160060000000001,-5.160060000000001,-9.810000000000001,0,2,1,0,
0.528,1.300652474138334,-5.17968,-5.17968,-9.810000000000001,0,2,1,0,
0.53,1.290273494138333,-5.199300000000001,-5.199300000000001,-9.810000000000001,0,2,1,0,
0.532,1.279855274138332,-5.218920000000001,-5.218920000000001,-9.810000000000001,0,2,1,0,
0.534,1.269397814138332,-5.23854,-5.23854,-9.810000000000001,0,2,1,0,
0.536,1.258901114138331,-5.25816,-5.25816,-9.810000000000001,0,2,1,0,
0.538,1.248365174138331,-5.277780000000001,-5.277780000000001,-9.810000000000001,0,2,1,0,
0.54,1.23778999413833,-5.297400000000001,-5.297400000000001,-9.810000000000001,0,2,1,0,
0.542,1.22717557413833,-5.31702,-5.31702,-9.810000000000001,0,2,1,0,
0.544,1.216521914138329,-5.336640000000001,-5.336640000000001,-9.810000000000001,0,2,1,0,
